# Chan   Freq(MHz)     Mean       StDev
     0   1352.500      2.923      1.884
     1   1353.500      4.064      2.010
     2   1354.500      5.650      2.096
     3   1355.500      6.794      2.139
     4   1356.500      8.040      2.175
     5   1357.500      8.766      2.196
     6   1358.500      9.459      2.204
     7   1359.500      9.878      2.203
     8   1360.500     10.506      2.181
     9   1361.500     10.694      2.179
    10   1362.500     11.097      2.150
    11   1363.500     11.095      2.150
    12   1364.500     11.072      2.152
    13   1365.500     10.756      2.174
    14   1366.500     10.536      2.181
    15   1367.500     10.215      2.200
    16   1368.500      4.916      2.065
    17   1369.500      5.905      2.106
    18   1370.500      7.100      2.151
    19   1371.500      7.938      2.172
    20   1372.500      8.819      2.194
    21   1373.500      9.185      2.206
    22   1374.500      9.479      2.204
    23   1375.500      9.619      2.205
    24   1376.500     10.043      2.201
    25   1377.500     10.091      2.203
    26   1378.500     10.267      2.198
    27   1379.500     10.022      2.202
    28   1380.500      9.588      2.207
    29   1381.500      8.951      2.201
    30   1382.500      8.436      2.187
    31   1383.500      7.834      2.175
    32   1384.500      5.615      2.098
    33   1385.500      6.360      2.128
    34   1386.500      7.328      2.157
    35   1387.500      7.925      2.172
    36   1388.500      8.560      2.195
    37   1389.500      8.836      2.196
    38   1390.500      9.105      2.201
    39   1391.500      9.388      2.196
    40   1392.500     11.922      1.916
    41   1393.500      9.370      2.207
    42   1394.500      9.334      2.205
    43   1395.500      9.031      2.203
    44   1396.500      8.716      2.199
    45   1397.500      8.216      2.186
    46   1398.500      7.781      2.170
    47   1399.500      7.249      2.164
    48   1400.500      3.170      1.917
    49   1401.500      3.904      1.996
    50   1402.500      4.912      2.064
    51   1403.500      5.630      2.098
    52   1404.500      6.575      2.133
    53   1405.500      6.974      2.141
    54   1406.500      7.543      2.164
    55   1407.500      7.903      2.173
    56   1408.500      8.691      2.175
    57   1409.500      8.527      2.190
    58   1410.500      8.777      2.199
    59   1411.500      8.773      2.198
    60   1412.500      8.517      2.189
    61   1413.500      8.082      2.180
    62   1414.500      7.716      2.167
    63   1415.500      7.216      2.156
    64   1416.500      2.825      1.870
    65   1417.500      3.579      1.966
    66   1418.500      4.677      2.050
    67   1419.500      5.548      2.096
    68   1420.500     10.231      2.330
    69   1421.500      7.205      2.153
    70   1422.500      8.003      2.179
    71   1423.500      8.563      2.190
    72   1424.500      9.126      2.199
    73   1425.500      9.231      2.203
    74   1426.500      9.380      2.202
    75   1427.500      9.316      2.204
    76   1428.500      9.071      2.202
    77   1429.500      8.586      2.192
    78   1430.500      8.204      2.182
    79   1431.500      7.758      2.172
    80   1432.500      2.342      1.774
    81   1433.500      3.195      1.922
    82   1434.500      4.452      2.037
    83   1435.500      5.400      2.088
    84   1436.500      6.455      2.127
    85   1437.500      6.896      2.142
    86   1438.500      7.500      2.161
    87   1439.500      7.959      2.178
    88   1440.500      8.737      2.173
    89   1441.500      8.108      2.184
    90   1442.500      8.104      2.180
    91   1443.500      7.931      2.176
    92   1444.500      7.511      2.162
    93   1445.500      6.899      2.142
    94   1446.500     14.595      0.000
    95   1447.500      9.583      2.255
